theta,I,s_I
-90,0.13,0.1
-85,23.3,0.5
-80,81,1
-75,190,2
-70,339,5
-65,505,5
-60,680,5
-55,870,10
-50,1060,10
-45,1330,20
-40,1550,20
-35,1760,20
-30,1950,20
-25,2130,30
-20,2290,30
-15,2360,30
-10,2520,40
-5,2550,40
0,2570,50
5,2530,50
10,2470,50
15,2370,40
20,2250,40
25,2090,30
30,1900,30
35,1680,30
40,1440,20
45,1230,20
50,1020,20
55,800,10
60,590,10
65,410,5
70,275,5
75,153,2
80,71,1
85,12.8,0.5
90,0.0,0.1
